FSIPost
Falmouth Scientific, Inc.
1140 Route 28A, PO Box 315
Cataumet, MA 02534-0315 U.S.A.
Phone: (508) 564 - 7640
FAX:   (508) 564 - 7643

Calibrated Data Text File: C:\deproas_meso\d2_7052.txt

    SCANS     PRES        TEMP        COND        OXCU        OXTM        FLUO        OBS        SAL*        DEN*        SV*        DEPTH*   
    898     -0.1000     22.7845     47.1186   1451.0000    165.0000      0.0000    614.0000     32.1890     21.8639   1525.8214     -0.0991
    899     -0.0607     22.8185     47.5797   1451.0000    165.0000      0.0000    614.0000     32.5167     22.1027   1526.2679     -0.0601
    900     -0.0368     22.8500     48.1973   1423.0000    165.0000      0.0000  16359.0000     32.9663     22.4346   1526.8409     -0.0365
    901      0.0039     22.8723     48.9775   1423.0000    165.0000      0.0000  16359.0000     33.5481     22.8694   1527.5349      0.0039
    902      0.0548     22.8947     49.8563   1423.0000    165.0000      0.0000  16359.0000     34.2070     23.3627   1528.3134      0.0544
    903      0.1120     22.9170     50.7950   1423.0000    165.0000      0.0000  16359.0000     34.9134     23.8923   1529.1442      0.1110
    904      0.1859     22.9280     51.5716   1423.0000    165.0000      0.0000  16359.0000     35.5052     24.3384   1529.8209      0.1844
    905      0.2308     22.9375     52.1650   1411.0000    165.0000      0.0000   1396.0000     35.9573     24.6790   1530.3408      0.2288
    906      0.2974     22.9460     52.5674   1411.0000    165.0000      0.0000   1396.0000     36.2627     24.9086   1530.6979      0.2948
    907      0.3378     22.9535     52.7740   1411.0000    165.0000      0.0000   1396.0000     36.4170     25.0237   1530.8866      0.3349
    908      0.4016     22.9620     52.8939   1411.0000    165.0000      0.0000   1396.0000     36.5031     25.0869   1531.0035      0.3982
    909      0.4797     22.9700     52.9796   1411.0000    165.0000      0.0000   1396.0000     36.5630     25.1304   1531.0907      0.4756
    910      0.5664     22.9760     53.0449   1411.0000    165.0000      0.0000   1396.0000     36.6088     25.1637   1531.1575      0.5615
    911      0.6189     22.9805     53.0991   1411.0000    165.0000      0.0000   1396.0000     36.6471     25.1918   1531.2118      0.6136
    912      0.6508     22.9830     53.1473   1411.0000    165.0000      0.0000   1396.0000     36.6825     25.2181   1531.2574      0.6453
    913      0.6702     22.9900     53.1730   1411.0000    165.0000      0.0000   1396.0000     36.6966     25.2268   1531.2909      0.6644
    914      0.6819     22.9970     53.1756   1411.0000    165.0000      0.0000   1396.0000     36.6928     25.2219   1531.3047      0.6761
    915      0.7284     23.0020     53.1642   1406.0000    165.0000      0.0000    108.0000     36.6797     25.2108   1531.3038      0.7221
    916      0.7566     23.0050     53.1439   1406.0000    165.0000      0.0000    108.0000     36.6614     25.1961   1531.2919      0.7501
    917      0.8130     23.0060     53.1182   1406.0000    165.0000      0.0000    108.0000     36.6406     25.1803   1531.2726      0.8060
    918      0.8472     23.0055     53.1345   1406.0000    165.0000      0.0000    108.0000     36.6537     25.1905   1531.2861      0.8400
    919      0.8680     23.0050     53.1771   1406.0000    165.0000      0.0000    108.0000     36.6871     25.2161   1531.3219      0.8606
    920      0.8806     23.0055     53.2213   1399.0000    165.0000      0.0000    166.0000     36.7211     25.2418   1531.3606      0.8730
    921      0.8882     23.0070     53.2545   1399.0000    165.0000      0.0000    166.0000     36.7457     25.2601   1531.3914      0.8806
    922      0.8929     23.0095     53.2675   1399.0000    165.0000      0.0000    166.0000     36.7537     25.2655   1531.4066      0.8852
    923      0.8563     23.0115     53.2766   1399.0000    165.0000      0.0000    166.0000     36.7591     25.2688   1531.4170      0.8490
    924      0.8342     23.0140     53.2833   1399.0000    165.0000      0.0000    166.0000     36.7622     25.2704   1531.4263      0.8270
    925      0.8207     23.0165     53.2881   1399.0000    165.0000      0.0000    166.0000     36.7639     25.2708   1531.4343      0.8137
    926      0.8126     23.0190     53.2911   1399.0000    165.0000      0.0000    166.0000     36.7641     25.2702   1531.4407      0.8056
    927      0.8076     23.0210     53.2921   1399.0000    165.0000      0.0000    166.0000     36.7632     25.2689   1531.4447      0.8007
    928      0.7653     23.0230     53.2919   1399.0000    165.0000      0.0000    166.0000     36.7613     25.2668   1531.4470      0.7587
    929      0.7396     23.0235     53.2910   1399.0000    165.0000      0.0000    166.0000     36.7602     25.2657   1531.4467      0.7333
    930      0.7240     23.0235     53.2897   1389.0000    164.0000      0.0000   1514.0000     36.7592     25.2649   1531.4453      0.7178
    931      0.6752     23.0235     53.2877   1389.0000    164.0000      0.0000   1514.0000     36.7577     25.2635   1531.4427      0.6694
    932      0.6456     23.0230     53.2853   1389.0000    164.0000      0.0000   1514.0000     36.7563     25.2624   1531.4395      0.6401
    933      0.6277     23.0225     53.2850   1389.0000    164.0000      0.0000   1514.0000     36.7565     25.2626   1531.4381      0.6223
    934      0.5774     23.0225     53.2845   1389.0000    164.0000      0.0000   1514.0000     36.7561     25.2621   1531.4369      0.5725
    935      0.5470     23.0230     53.2845   1389.0000    165.0000      0.0000    867.0000     36.7557     25.2616   1531.4373      0.5423
    936      0.5285     23.0230     53.2849   1389.0000    165.0000      0.0000    867.0000     36.7560     25.2617   1531.4373      0.5240
    937      0.4779     23.0235     53.2860   1389.0000    165.0000      0.0000    867.0000     36.7564     25.2617   1531.4381      0.4738
    938      0.4473     23.0240     53.2847   1389.0000    165.0000      0.0000    867.0000     36.7550     25.2603   1531.4373      0.4434
    939      0.4287     23.0250     53.2815   1389.0000    165.0000      0.0000    867.0000     36.7517     25.2574   1531.4359      0.4250
    940      0.4174     23.0260     53.2780   1389.0000    165.0000      0.0000    867.0000     36.7482     25.2544   1531.4343      0.4138
    941      0.3712     23.0260     53.2755   1389.0000    165.0000      0.0000    867.0000     36.7462     25.2527   1531.4315      0.3680
    942      0.3038     23.0260     53.2743   1389.0000    165.0000      0.0000    867.0000     36.7454     25.2518   1531.4294      0.3012
    943      0.3023     23.0255     53.2685   1389.0000    165.0000      0.0000    867.0000     36.7413     25.2488   1531.4237      0.2997
    944      0.2621     23.0245     53.2540   1389.0000    165.0000      0.0000    867.0000     36.7308     25.2410   1531.4091      0.2598
    945      0.2770     23.0250     53.2440   1373.0000    165.0000      0.0000    511.0000     36.7226     25.2347   1531.4016      0.2746
    946      0.3254     23.0270     53.2462   1373.0000    165.0000      0.0000    511.0000     36.7227     25.2344   1531.4075      0.3226
    947      0.4334     23.0305     53.2652   1373.0000    165.0000      0.0000    511.0000     36.7345     25.2428   1531.4310      0.4297
    948      0.5777     23.0325     53.2748   1373.0000    165.0000      0.0000    511.0000     36.7402     25.2472   1531.4448      0.5727
    949      0.6652     23.0340     53.2842   1373.0000    165.0000      0.0000    511.0000     36.7462     25.2516   1531.4567      0.6594
    950      0.7576     23.0350     53.2918   1375.0000    165.0000      0.0000    324.0000     36.7512     25.2556   1531.4662      0.7511
    951      0.8136     23.0365     53.2965   1375.0000    165.0000      0.0000    324.0000     36.7536     25.2572   1531.4735      0.8066
    952      0.8869     23.0380     53.2977   1375.0000    165.0000      0.0000    324.0000     36.7532     25.2568   1531.4781      0.8793
    953      0.9314     23.0390     53.2988   1375.0000    165.0000      0.0000    324.0000     36.7533     25.2567   1531.4816      0.9234
    954      0.9978     23.0395     53.2999   1375.0000    165.0000      0.0000    324.0000     36.7537     25.2572   1531.4844      0.9892
    955      1.0380     23.0400     53.3006   1375.0000    165.0000      0.0000    324.0000     36.7538     25.2573   1531.4863      1.0291
    956      1.0624     23.0405     53.3010   1375.0000    165.0000      0.0000    324.0000     36.7536     25.2571   1531.4879      1.0533
    957      1.0772     23.0415     53.3008   1375.0000    165.0000      0.0000    324.0000     36.7527     25.2562   1531.4896      1.0679
    958      1.1255     23.0420     53.3007   1375.0000    165.0000      0.0000    324.0000     36.7522     25.2559   1531.4912      1.1159
    959      1.1942     23.0425     53.3003   1375.0000    165.0000      0.0000    324.0000     36.7514     25.2554   1531.4927      1.1839
    960      1.2752     23.0430     53.3000   1379.0000    164.0000      0.0000     86.0000     36.7507     25.2551   1531.4946      1.2642
    961      1.3636     23.0435     53.3002   1379.0000    164.0000      0.0000     86.0000     36.7505     25.2551   1531.4971      1.3519
    962      1.4960     23.0440     53.3012   1379.0000    164.0000      0.0000     86.0000     36.7507     25.2558   1531.5009      1.4831
    963      1.6156     23.0440     53.3017   1379.0000    164.0000      0.0000     86.0000     36.7511     25.2566   1531.5033      1.6017
    964      1.6882     23.0445     53.3029   1379.0000    164.0000      0.0000     86.0000     36.7515     25.2571   1531.5062      1.6737
    965      1.7322     23.0445     53.3035   1381.0000    165.0000      0.0000    100.0000     36.7521     25.2577   1531.5074      1.7173
    966      1.7589     23.0445     53.3040   1381.0000    165.0000      0.0000    100.0000     36.7524     25.2580   1531.5083      1.7438
    967      1.8144     23.0445     53.3034   1381.0000    165.0000      0.0000    100.0000     36.7519     25.2579   1531.5088      1.7988
    968      1.8481     23.0445     53.3039   1381.0000    165.0000      0.0000    100.0000     36.7523     25.2583   1531.5096      1.8322
    969      1.8685     23.0445     53.3042   1381.0000    165.0000      0.0000    100.0000     36.7525     25.2586   1531.5103      1.8525
    970      1.8809     23.0440     53.3043   1381.0000    165.0000      0.0000    100.0000     36.7530     25.2592   1531.5098      1.8648
    971      1.8884     23.0440     53.3040   1381.0000    165.0000      0.0000    100.0000     36.7528     25.2591   1531.5096      1.8722
    972      1.9323     23.0435     53.3031   1381.0000    165.0000      0.0000    100.0000     36.7525     25.2591   1531.5088      1.9157
    973      1.9196     23.0425     53.3029   1381.0000    165.0000      0.0000    100.0000     36.7532     25.2599   1531.5068      1.9031
    974      1.9119     23.0420     53.3024   1381.0000    165.0000      0.0000    100.0000     36.7532     25.2600   1531.5054      1.8955
    975      1.9072     23.0410     53.3017   1376.0000    165.0000      0.0000     89.0000     36.7535     25.2605   1531.5032      1.8909
    976      1.9044     23.0395     53.3012   1376.0000    165.0000      0.0000     89.0000     36.7544     25.2616   1531.5002      1.8880
    977      1.9027     23.0380     53.3010   1376.0000    165.0000      0.0000     89.0000     36.7555     25.2629   1531.4977      1.8863
    978      1.8623     23.0380     53.3012   1376.0000    165.0000      0.0000     89.0000     36.7557     25.2629   1531.4972      1.8463
    979      1.8378     23.0375     53.2998   1376.0000    165.0000      0.0000     89.0000     36.7550     25.2624   1531.4948      1.8220
    980      1.8229     23.0375     53.2981   1363.0000    165.0000      0.0000     92.0000     36.7537     25.2613   1531.4930      1.8073
    981      1.8139     23.0370     53.2967   1363.0000    165.0000      0.0000     92.0000     36.7530     25.2609   1531.4910      1.7983
    982      1.7691     23.0365     53.2959   1363.0000    165.0000      0.0000     92.0000     36.7528     25.2607   1531.4886      1.7539
    983      1.7419     23.0360     53.2970   1363.0000    165.0000      0.0000     92.0000     36.7541     25.2617   1531.4883      1.7270
    984      1.7254     23.0365     53.2972   1363.0000    165.0000      0.0000     92.0000     36.7538     25.2613   1531.4891      1.7106
    985      1.7154     23.0365     53.2962   1363.0000    165.0000      0.0000     92.0000     36.7530     25.2607   1531.4880      1.7007
    986      1.6700     23.0360     53.2936   1363.0000    165.0000      0.0000     92.0000     36.7515     25.2594   1531.4843      1.6557
    987      1.6425     23.0360     53.2897   1363.0000    165.0000      0.0000     92.0000     36.7484     25.2570   1531.4805      1.6284
    988      1.6258     23.0355     53.2873   1363.0000    165.0000      0.0000     92.0000     36.7470     25.2560   1531.4774      1.6118
    989      1.6550     23.0350     53.2858   1363.0000    165.0000      0.0000     92.0000     36.7463     25.2557   1531.4758      1.6408
    990      1.6727     23.0340     53.2853   1361.0000    165.0000      0.0000    106.0000     36.7467     25.2564   1531.4741      1.6583
    991      1.6834     23.0335     53.2858   1361.0000    165.0000      0.0000    106.0000     36.7475     25.2572   1531.4739      1.6690
    992      1.7293     23.0325     53.2873   1361.0000    165.0000      0.0000    106.0000     36.7495     25.2592   1531.4742      1.7145
    993      1.7571     23.0330     53.2890   1361.0000    165.0000      0.0000    106.0000     36.7504     25.2598   1531.4769      1.7420
    994      1.7346     23.0330     53.2892   1361.0000    165.0000      0.0000    106.0000     36.7506     25.2599   1531.4768      1.7198
    995      1.7604     23.0330     53.2894   1366.0000    164.0000      0.0000     74.0000     36.7507     25.2601   1531.4773      1.7453
    996      1.7760     23.0330     53.2899   1366.0000    164.0000      0.0000     74.0000     36.7510     25.2604   1531.4780      1.7607
    997      1.8248     23.0330     53.2913   1366.0000    164.0000      0.0000     74.0000     36.7522     25.2615   1531.4801      1.8091
    998      1.8937     23.0335     53.2934   1366.0000    164.0000      0.0000     74.0000     36.7533     25.2625   1531.4838      1.8775
    999      1.9355     23.0340     53.2947   1366.0000    164.0000      0.0000     74.0000     36.7539     25.2630   1531.4863      1.9189
   1000      2.0002     23.0340     53.2954   1366.0000    164.0000      0.0000     74.0000     36.7545     25.2637   1531.4880      1.9831
   1001      2.0395     23.0345     53.2959   1366.0000    164.0000      0.0000     74.0000     36.7544     25.2637   1531.4899      2.0220
   1002      2.1026     23.0350     53.2966   1366.0000    164.0000      0.0000     74.0000     36.7545     25.2639   1531.4923      2.0846
   1003      2.1803     23.0360     53.2970   1366.0000    164.0000      0.0000     74.0000     36.7539     25.2635   1531.4955      2.1616
   1004      2.2667     23.0365     53.2976   1366.0000    164.0000      0.0000     74.0000     36.7540     25.2638   1531.4983      2.2473
   1005      2.3192     23.0375     53.2984   1366.0000    165.0000      0.0000    109.0000     36.7537     25.2635   1531.5015      2.2993
   1006      2.3903     23.0385     53.2996   1366.0000    165.0000      0.0000    109.0000     36.7538     25.2636   1531.5052      2.3698
   1007      2.5122     23.0400     53.3012   1366.0000    165.0000      0.0000    109.0000     36.7537     25.2636   1531.5110      2.4906
   1008      2.6254     23.0405     53.3021   1366.0000    165.0000      0.0000    109.0000     36.7540     25.2642   1531.5144      2.6029
   1009      2.6941     23.0410     53.3035   1366.0000    165.0000      0.0000    109.0000     36.7546     25.2648   1531.5176      2.6710
   1010      2.7358     23.0415     53.3047   1372.0000    165.0000      0.0000     86.0000     36.7551     25.2652   1531.5200      2.7123
   1011      2.8004     23.0415     53.3051   1372.0000    165.0000      0.0000     86.0000     36.7554     25.2657   1531.5214      2.7764
   1012      2.8396     23.0420     53.3041   1372.0000    165.0000      0.0000     86.0000     36.7542     25.2648   1531.5221      2.8152
   1013      2.8634     23.0420     53.3043   1372.0000    165.0000      0.0000     86.0000     36.7543     25.2650   1531.5226      2.8388
   1014      2.8778     23.0425     53.3048   1372.0000    165.0000      0.0000     86.0000     36.7543     25.2649   1531.5240      2.8531
   1015      2.9259     23.0425     53.3051   1372.0000    165.0000      0.0000     86.0000     36.7545     25.2653   1531.5251      2.9008
   1016      2.9157     23.0430     53.3053   1372.0000    165.0000      0.0000     86.0000     36.7543     25.2649   1531.5259      2.8907
   1017      2.9095     23.0430     53.3050   1372.0000    165.0000      0.0000     86.0000     36.7541     25.2647   1531.5256      2.8846
   1018      2.9451     23.0430     53.3049   1372.0000    165.0000      0.0000     86.0000     36.7539     25.2648   1531.5260      2.9199
   1019      2.9667     23.0435     53.3044   1372.0000    165.0000      0.0000     86.0000     36.7531     25.2641   1531.5267      2.9413
   1020      2.9798     23.0430     53.3037   1361.0000    165.0000      0.0000    106.0000     36.7530     25.2642   1531.5256      2.9542
   1021      2.9484     23.0420     53.3025   1361.0000    165.0000      0.0000    106.0000     36.7529     25.2643   1531.5225      2.9231
   1022      2.9294     23.0410     53.3009   1361.0000    165.0000      0.0000    106.0000     36.7525     25.2642   1531.5192      2.9042
   1023      2.8785     23.0390     53.3012   1361.0000    165.0000      0.0000    106.0000     36.7544     25.2660   1531.5154      2.8538
   1024      2.8869     23.0380     53.3006   1361.0000    165.0000      0.0000    106.0000     36.7548     25.2666   1531.5133      2.8622
   1025      2.8921     23.0375     53.3002   1359.0000    165.0000      0.0000     97.0000     36.7549     25.2669   1531.5123      2.8673
   1026      2.8558     23.0370     53.2999   1359.0000    165.0000      0.0000     97.0000     36.7552     25.2671   1531.5107      2.8313
   1027      2.8339     23.0370     53.3002   1359.0000    165.0000      0.0000     97.0000     36.7554     25.2671   1531.5106      2.8096
   1028      2.7812     23.0370     53.3004   1359.0000    165.0000      0.0000     97.0000     36.7555     25.2670   1531.5099      2.7573
   1029      2.7492     23.0370     53.3008   1359.0000    165.0000      0.0000     97.0000     36.7559     25.2672   1531.5098      2.7257
   1030      2.6905     23.0370     53.3015   1359.0000    165.0000      0.0000     97.0000     36.7564     25.2673   1531.5094      2.6674
   1031      2.6549     23.0370     53.3016   1359.0000    165.0000      0.0000     97.0000     36.7565     25.2672   1531.5088      2.6321
   1032      2.5940     23.0370     53.3012   1359.0000    165.0000      0.0000     97.0000     36.7562     25.2667   1531.5074      2.5717
   1033      2.5570     23.0370     53.3021   1359.0000    165.0000      0.0000     97.0000     36.7570     25.2671   1531.5077      2.5351
   1034      2.5346     23.0370     53.3027   1359.0000    165.0000      0.0000     97.0000     36.7574     25.2674   1531.5078      2.5128
   1035      2.5210     23.0375     53.3031   1355.0000    165.0000      0.0000    100.0000     36.7573     25.2671   1531.5087      2.4993
   1036      2.5127     23.0375     53.3025   1355.0000    165.0000      0.0000    100.0000     36.7568     25.2667   1531.5081      2.4912
