FSIPost
Falmouth Scientific, Inc.
1140 Route 28A, PO Box 315
Cataumet, MA 02534-0315 U.S.A.
Phone: (508) 564 - 7640
FAX:   (508) 564 - 7643

Calibrated Data Text File: C:\deproas_meso\d2_7050.txt

    SCANS     PRES        TEMP        COND        OXCU        OXTM        FLUO        OBS        SAL*        DEN*        SV*        DEPTH*   
   3056      0.0787     22.1567     47.8820   1808.0000    167.0000      0.0000     13.0000     33.2487     22.8444   1525.3492      0.0780
   3057      0.1658     22.2707     48.4437   1682.0000    167.0000      0.0000  16359.0000     33.5980     23.0780   1526.0328      0.1643
   3058      0.2186     22.3551     49.0507   1682.0000    167.0000      0.0000  16359.0000     34.0045     23.3630   1526.7003      0.2167
   3059      0.2506     22.4101     49.6278   1682.0000    167.0000      0.0000  16359.0000     34.4103     23.6557   1527.2894      0.2485
   3060      0.3094     22.4641     50.2366   1682.0000    167.0000      0.0000  16359.0000     34.8416     23.9680   1527.9037      0.3067
   3061      0.3844     22.5066     50.7188   1682.0000    167.0000      0.0000  16359.0000     35.1833     24.2156   1528.3898      0.3811
   3062      0.4692     22.5401     51.0856   1682.0000    167.0000      0.0000  16359.0000     35.4422     24.4030   1528.7618      0.4652
   3063      0.5207     22.5656     51.3470   1682.0000    167.0000      0.0000  16359.0000     35.6254     24.5351   1529.0294      0.5162
   3064      0.5519     22.5836     51.5091   1682.0000    167.0000      0.0000  16359.0000     35.7371     24.6149   1529.1990      0.5472
   3065      0.6495     22.6001     51.6787   1682.0000    167.0000      0.0000  16359.0000     35.8559     24.7008   1529.3733      0.6439
   3066      0.7087     22.6131     51.8444   1682.0000    167.0000      0.0000  16359.0000     35.9746     24.7875   1529.5380      0.7026
   3067      0.7840     22.6256     51.9800   1681.0000    167.0000      0.0000  16356.0000     36.0701     24.8568   1529.6761      0.7773
   3068      0.8690     22.6376     52.0708   1681.0000    167.0000      0.0000  16356.0000     36.1311     24.9000   1529.7753      0.8615
   3069      0.9992     22.6501     52.1087   1681.0000    167.0000      0.0000  16356.0000     36.1502     24.9115   1529.8306      0.9907
   3070      1.0782     22.6546     52.1332   1681.0000    167.0000      0.0000  16356.0000     36.1656     24.9223   1529.8602      1.0690
   3071      1.1655     22.6581     52.1484   1681.0000    167.0000      0.0000  16356.0000     36.1746     24.9285   1529.8805      1.1555
   3072      1.2184     22.6611     52.1577   1675.0000    167.0000      0.0000   2797.0000     36.1793     24.9314   1529.8943      1.2080
   3073      1.2899     22.6636     52.1629   1675.0000    167.0000      0.0000   2797.0000     36.1813     24.9325   1529.9041      1.2788
   3074      1.3725     22.6651     52.1656   1675.0000    167.0000      0.0000   2797.0000     36.1822     24.9331   1529.9103      1.3608
   3075      1.4620     22.6666     52.1689   1675.0000    167.0000      0.0000   2797.0000     36.1834     24.9340   1529.9170      1.4495
   3076      1.5163     22.6686     52.1740   1675.0000    167.0000      0.0000   2797.0000     36.1858     24.9355   1529.9255      1.5033
   3077      1.5886     22.6711     52.1787   1675.0000    167.0000      0.0000   2797.0000     36.1873     24.9362   1529.9349      1.5750
   3078      1.6324     22.6731     52.1815   1675.0000    167.0000      0.0000   2797.0000     36.1879     24.9363   1529.9414      1.6184
   3079      1.6984     22.6756     52.1821   1675.0000    167.0000      0.0000   2797.0000     36.1862     24.9346   1529.9470      1.6838
   3080      1.7777     22.6766     52.1828   1675.0000    167.0000      0.0000   2797.0000     36.1859     24.9344   1529.9506      1.7625
   3081      1.8258     22.6771     52.1824   1675.0000    167.0000      0.0000   2797.0000     36.1852     24.9339   1529.9519      1.8102
   3082      1.8944     22.6761     52.1807   1647.0000    167.0000      0.0000    209.0000     36.1846     24.9341   1529.9498      1.8781
   3083      1.9753     22.6736     52.1776   1647.0000    167.0000      0.0000    209.0000     36.1843     24.9349   1529.9445      1.9583
   3084      2.0637     22.6691     52.1734   1647.0000    167.0000      0.0000    209.0000     36.1847     24.9369   1529.9348      2.0460
   3085      2.1173     22.6676     52.1701   1647.0000    167.0000      0.0000    209.0000     36.1833     24.9365   1529.9304      2.0992
   3086      2.1499     22.6661     52.1680   1647.0000    167.0000      0.0000    209.0000     36.1829     24.9368   1529.9266      2.1314
   3087      2.1696     22.6651     52.1668   1650.0000    167.0000      0.0000    445.0000     36.1828     24.9370   1529.9243      2.1510
   3088      2.1816     22.6641     52.1661   1650.0000    167.0000      0.0000    445.0000     36.1830     24.9376   1529.9222      2.1628
   3089      2.1888     22.6631     52.1656   1650.0000    167.0000      0.0000    445.0000     36.1835     24.9382   1529.9203      2.1700
   3090      2.1539     22.6626     52.1653   1650.0000    167.0000      0.0000    445.0000     36.1837     24.9384   1529.9187      2.1354
   3091      2.1720     22.6616     52.1652   1650.0000    167.0000      0.0000    445.0000     36.1844     24.9393   1529.9171      2.1534
   3092      2.1830     22.6611     52.1647   1650.0000    167.0000      0.0000    445.0000     36.1845     24.9395   1529.9161      2.1643
   3093      2.1897     22.6611     52.1640   1650.0000    167.0000      0.0000    445.0000     36.1839     24.9391   1529.9156      2.1709
   3094      2.1938     22.6611     52.1632   1650.0000    167.0000      0.0000    445.0000     36.1833     24.9387   1529.9149      2.1749
   3095      2.1962     22.6606     52.1639   1650.0000    167.0000      0.0000    445.0000     36.1842     24.9395   1529.9148      2.1774
   3096      2.1977     22.6601     52.1631   1650.0000    167.0000      0.0000    445.0000     36.1840     24.9395   1529.9133      2.1789
   3097      2.1986     22.6591     52.1622   1639.0000    167.0000      0.0000    622.0000     36.1842     24.9400   1529.9109      2.1797
   3098      2.1992     22.6586     52.1625   1639.0000    167.0000      0.0000    622.0000     36.1848     24.9406   1529.9104      2.1803
   3099      2.1995     22.6576     52.1646   1639.0000    167.0000      0.0000    622.0000     36.1873     24.9427   1529.9105      2.1806
   3100      2.1603     22.6576     52.1659   1639.0000    167.0000      0.0000    622.0000     36.1883     24.9434   1529.9110      2.1418
   3101      2.1759     22.6576     52.1675   1639.0000    167.0000      0.0000    622.0000     36.1896     24.9443   1529.9126      2.1573
   3102      2.1854     22.6576     52.1684   1643.0000    167.0000      0.0000    661.0000     36.1903     24.9450   1529.9136      2.1667
   3103      2.1912     22.6581     52.1686   1643.0000    167.0000      0.0000    661.0000     36.1900     24.9446   1529.9147      2.1724
   3104      2.1946     22.6591     52.1680   1643.0000    167.0000      0.0000    661.0000     36.1887     24.9433   1529.9158      2.1758
   3105      2.1574     22.6596     52.1679   1643.0000    167.0000      0.0000    661.0000     36.1882     24.9427   1529.9160      2.1389
   3106      2.1348     22.6601     52.1679   1643.0000    167.0000      0.0000    661.0000     36.1878     24.9422   1529.9164      2.1165
   3107      2.1211     22.6601     52.1679   1643.0000    167.0000      0.0000    661.0000     36.1878     24.9421   1529.9161      2.1029
   3108      2.1128     22.6606     52.1675   1643.0000    167.0000      0.0000    661.0000     36.1871     24.9414   1529.9165      2.0947
   3109      2.0684     22.6606     52.1665   1643.0000    167.0000      0.0000    661.0000     36.1863     24.9406   1529.9149      2.0507
   3110      2.0415     22.6611     52.1663   1643.0000    167.0000      0.0000    661.0000     36.1857     24.9399   1529.9152      2.0240
   3111      2.0252     22.6611     52.1661   1643.0000    167.0000      0.0000    661.0000     36.1856     24.9397   1529.9148      2.0078
   3112      2.0153     22.6611     52.1660   1631.0000    167.0000      0.0000    391.0000     36.1856     24.9396   1529.9146      1.9980
   3113      2.0093     22.6606     52.1656   1631.0000    167.0000      0.0000    391.0000     36.1856     24.9398   1529.9132      1.9920
   3114      1.9663     22.6591     52.1649   1631.0000    167.0000      0.0000    391.0000     36.1864     24.9406   1529.9094      1.9494
   3115      1.9402     22.6591     52.1641   1631.0000    167.0000      0.0000    391.0000     36.1858     24.9400   1529.9083      1.9236
   3116      1.9244     22.6591     52.1637   1631.0000    167.0000      0.0000    391.0000     36.1854     24.9397   1529.9077      1.9079
   3117      1.9148     22.6591     52.1630   1623.0000    167.0000      0.0000    155.0000     36.1849     24.9392   1529.9069      1.8984
   3118      1.9090     22.6591     52.1622   1623.0000    167.0000      0.0000    155.0000     36.1842     24.9387   1529.9061      1.8926
   3119      1.9054     22.6591     52.1609   1623.0000    167.0000      0.0000    155.0000     36.1832     24.9380   1529.9050      1.8891
   3120      1.9033     22.6591     52.1613   1623.0000    167.0000      0.0000    155.0000     36.1836     24.9382   1529.9053      1.8870
   3121      1.9020     22.6596     52.1611   1623.0000    167.0000      0.0000    155.0000     36.1830     24.9376   1529.9060      1.8857
   3122      1.9012     22.6601     52.1611   1623.0000    167.0000      0.0000    155.0000     36.1825     24.9371   1529.9067      1.8849
   3123      1.9007     22.6601     52.1610   1623.0000    167.0000      0.0000    155.0000     36.1825     24.9371   1529.9066      1.8844
   3124      1.9004     22.6606     52.1606   1623.0000    167.0000      0.0000    155.0000     36.1818     24.9364   1529.9071      1.8841
   3125      1.9003     22.6611     52.1611   1623.0000    167.0000      0.0000    155.0000     36.1818     24.9362   1529.9084      1.8840
   3126      1.9002     22.6616     52.1618   1623.0000    167.0000      0.0000    155.0000     36.1819     24.9362   1529.9098      1.8839
   3127      1.9001     22.6616     52.1630   1599.0000    167.0000      0.0000    141.0000     36.1828     24.9369   1529.9109      1.8838
   3128      1.9001     22.6621     52.1642   1599.0000    167.0000      0.0000    141.0000     36.1833     24.9371   1529.9127      1.8838
   3129      1.9000     22.6626     52.1656   1599.0000    167.0000      0.0000    141.0000     36.1841     24.9375   1529.9148      1.8837
   3130      1.9394     22.6626     52.1665   1599.0000    167.0000      0.0000    141.0000     36.1847     24.9382   1529.9161      1.9227
   3131      2.0026     22.6631     52.1683   1599.0000    167.0000      0.0000    141.0000     36.1857     24.9391   1529.9196      1.9854
   3132      2.0409     22.6636     52.1697   1602.0000    167.0000      0.0000    257.0000     36.1863     24.9396   1529.9222      2.0234
   3133      2.0642     22.6636     52.1702   1602.0000    167.0000      0.0000    257.0000     36.1867     24.9400   1529.9230      2.0465
   3134      2.0783     22.6641     52.1701   1602.0000    167.0000      0.0000    257.0000     36.1862     24.9395   1529.9240      2.0604
   3135      2.0868     22.6641     52.1708   1602.0000    167.0000      0.0000    257.0000     36.1868     24.9400   1529.9247      2.0689
   3136      2.0920     22.6646     52.1712   1602.0000    167.0000      0.0000    257.0000     36.1867     24.9398   1529.9260      2.0741
   3137      2.1345     22.6646     52.1711   1602.0000    167.0000      0.0000    257.0000     36.1866     24.9399   1529.9266      2.1162
   3138      2.1603     22.6646     52.1710   1602.0000    167.0000      0.0000    257.0000     36.1865     24.9400   1529.9269      2.1417
   3139      2.2152     22.6646     52.1710   1602.0000    167.0000      0.0000    257.0000     36.1865     24.9402   1529.9279      2.1962
   3140      2.2879     22.6646     52.1714   1602.0000    167.0000      0.0000    257.0000     36.1867     24.9407   1529.9293      2.2683
   3141      2.2927     22.6646     52.1716   1602.0000    167.0000      0.0000    257.0000     36.1869     24.9408   1529.9296      2.2730
   3142      2.2956     22.6646     52.1717   1600.0000    167.0000      0.0000    124.0000     36.1870     24.9409   1529.9297      2.2759
   3143      2.3367     22.6646     52.1718   1600.0000    167.0000      0.0000    124.0000     36.1870     24.9411   1529.9304      2.3166
   3144      2.4009     22.6651     52.1718   1600.0000    167.0000      0.0000    124.0000     36.1866     24.9410   1529.9324      2.3803
   3145      2.4399     22.6651     52.1727   1600.0000    167.0000      0.0000    124.0000     36.1873     24.9416   1529.9337      2.4190
   3146      2.5029     22.6651     52.1728   1600.0000    167.0000      0.0000    124.0000     36.1873     24.9419   1529.9348      2.4814
   3147      2.5411     22.6646     52.1724   1597.0000    166.0000      0.0000    110.0000     36.1875     24.9423   1529.9343      2.5193
   3148      2.6036     22.6646     52.1718   1597.0000    166.0000      0.0000    110.0000     36.1870     24.9422   1529.9348      2.5813
   3149      2.6415     22.6646     52.1715   1597.0000    166.0000      0.0000    110.0000     36.1867     24.9422   1529.9352      2.6189
   3150      2.6645     22.6646     52.1724   1597.0000    166.0000      0.0000    110.0000     36.1874     24.9429   1529.9364      2.6417
   3151      2.7178     22.6646     52.1726   1597.0000    166.0000      0.0000    110.0000     36.1876     24.9432   1529.9374      2.6945
   3152      2.7502     22.6646     52.1724   1597.0000    166.0000      0.0000    110.0000     36.1873     24.9431   1529.9377      2.7266
   3153      2.7698     22.6641     52.1722   1597.0000    166.0000      0.0000    110.0000     36.1876     24.9436   1529.9370      2.7460
   3154      2.7817     22.6641     52.1717   1597.0000    166.0000      0.0000    110.0000     36.1872     24.9433   1529.9368      2.7578
   3155      2.7889     22.6646     52.1722   1597.0000    166.0000      0.0000    110.0000     36.1872     24.9432   1529.9382      2.7650
   3156      2.7933     22.6646     52.1721   1597.0000    166.0000      0.0000    110.0000     36.1871     24.9432   1529.9381      2.7693
   3157      2.7566     22.6651     52.1716   1600.0000    167.0000      0.0000    121.0000     36.1864     24.9423   1529.9380      2.7329
   3158      2.7343     22.6656     52.1713   1600.0000    167.0000      0.0000    121.0000     36.1857     24.9416   1529.9382      2.7108
   3159      2.7208     22.6661     52.1708   1600.0000    167.0000      0.0000    121.0000     36.1849     24.9407   1529.9384      2.6975
   3160      2.7126     22.6661     52.1697   1600.0000    167.0000      0.0000    121.0000     36.1840     24.9400   1529.9373      2.6893
   3161      2.7077     22.6656     52.1694   1600.0000    167.0000      0.0000    121.0000     36.1842     24.9403   1529.9362      2.6844
   3162      2.7046     22.6651     52.1696   1583.0000    167.0000      0.0000    268.0000     36.1848     24.9409   1529.9354      2.6814
   3163      2.7028     22.6641     52.1697   1583.0000    167.0000      0.0000    268.0000     36.1857     24.9419   1529.9338      2.6796
   3164      2.6624     22.6631     52.1698   1583.0000    167.0000      0.0000    268.0000     36.1866     24.9426   1529.9316      2.6395
   3165      2.6378     22.6631     52.1710   1583.0000    167.0000      0.0000    268.0000     36.1876     24.9433   1529.9323      2.6152
   3166      2.5836     22.6626     52.1714   1583.0000    167.0000      0.0000    268.0000     36.1883     24.9437   1529.9308      2.5614
   3167      2.5507     22.6621     52.1712   1583.0000    167.0000      0.0000    268.0000     36.1886     24.9439   1529.9293      2.5288
   3168      2.5308     22.6621     52.1715   1583.0000    167.0000      0.0000    268.0000     36.1888     24.9440   1529.9292      2.5090
   3169      2.4793     22.6616     52.1720   1583.0000    167.0000      0.0000    268.0000     36.1897     24.9446   1529.9281      2.4580
   3170      2.4481     22.6616     52.1724   1583.0000    167.0000      0.0000    268.0000     36.1900     24.9447   1529.9279      2.4271
   3171      2.4292     22.6616     52.1738   1583.0000    167.0000      0.0000    268.0000     36.1911     24.9454   1529.9287      2.4083
   3172      2.3783     22.6616     52.1758   1584.0000    166.0000      0.0000    575.0000     36.1926     24.9464   1529.9296      2.3579
   3173      2.3082     22.6631     52.1778   1584.0000    166.0000      0.0000    575.0000     36.1930     24.9460   1529.9326      2.2884
   3174      2.2263     22.6646     52.1798   1584.0000    166.0000      0.0000    575.0000     36.1934     24.9454   1529.9355      2.2072
   3175      2.1766     22.6651     52.1810   1584.0000    166.0000      0.0000    575.0000     36.1939     24.9455   1529.9366      2.1579
   3176      2.1465     22.6666     52.1810   1584.0000    166.0000      0.0000    575.0000     36.1926     24.9440   1529.9385      2.1280
   3177      2.1282     22.6676     52.1806   1575.0000    167.0000      0.0000   1703.0000     36.1915     24.9427   1529.9396      2.1099
   3178      2.0777     22.6681     52.1799   1575.0000    167.0000      0.0000   1703.0000     36.1906     24.9417   1529.9390      2.0599
   3179      2.0078     22.6681     52.1791   1575.0000    167.0000      0.0000   1703.0000     36.1900     24.9409   1529.9371      1.9906
   3180      2.0047     22.6681     52.1787   1575.0000    167.0000      0.0000   1703.0000     36.1896     24.9406   1529.9366      1.9875
   3181      1.9635     22.6681     52.1788   1575.0000    167.0000      0.0000   1703.0000     36.1897     24.9405   1529.9362      1.9467
   3182      1.9385     22.6676     52.1788   1575.0000    167.0000      0.0000   1703.0000     36.1902     24.9409   1529.9349      1.9219
   3183      1.9234     22.6676     52.1789   1575.0000    167.0000      0.0000   1703.0000     36.1902     24.9409   1529.9347      1.9069
   3184      1.9142     22.6676     52.1793   1575.0000    167.0000      0.0000   1703.0000     36.1906     24.9411   1529.9349      1.8978
   3185      1.8693     22.6676     52.1795   1575.0000    167.0000      0.0000   1703.0000     36.1908     24.9411   1529.9344      1.8532
   3186      1.8813     22.6676     52.1793   1575.0000    167.0000      0.0000   1703.0000     36.1906     24.9410   1529.9344      1.8652
   3187      1.8887     22.6676     52.1787   1576.0000    168.0000      0.0000    537.0000     36.1901     24.9407   1529.9341      1.8725
   3188      1.8931     22.6681     52.1784   1576.0000    168.0000      0.0000    537.0000     36.1895     24.9401   1529.9347      1.8769
   3189      1.8958     22.6681     52.1782   1576.0000    168.0000      0.0000    537.0000     36.1893     24.9399   1529.9346      1.8796
   3190      1.8975     22.6686     52.1789   1576.0000    168.0000      0.0000    537.0000     36.1894     24.9399   1529.9360      1.8812
   3191      1.9378     22.6696     52.1809   1576.0000    168.0000      0.0000    537.0000     36.1901     24.9403   1529.9399      1.9212
   3192      1.9623     22.6706     52.1825   1584.0000    167.0000      0.0000    685.0000     36.1905     24.9404   1529.9434      1.9455
   3193      1.9771     22.6716     52.1834   1584.0000    167.0000      0.0000    685.0000     36.1905     24.9402   1529.9462      1.9602
   3194      2.0255     22.6726     52.1836   1584.0000    167.0000      0.0000    685.0000     36.1898     24.9395   1529.9487      2.0081
